# Temperature Density 
516.7469,4411.2793	
765.1168,4380.6312	
1022.7146,4339.375	
1261.9218,4298.0209	
1528.6821,4267.4708	
1786.2798,4226.2146	
1924.2412,4216.2926	
2163.5791,4132.3104	
2430.4701,4059.1322	
2660.5800,3985.758	
2881.4948,3912.3348	
3102.3768,3849.5686	
3295.6078,3807.9695	
